Left Bin Edge (nm)	Right Bin Edge (nm)	Bin Center (nm)		Top of Atm Intensity (erg/s/nm/cm2)		Total Surface Flux (erg/s/nm/cm2)		Total Intensity at BOA (erg/s/nm/cm2)		Total Surface Intensity (erg/s/nm/cm2)		Total Surface Diffuse Intensity (erg/s/nm/cm2)		Total Surface Direct Intensity (erg/s/nm/cm2)
1.2000000e+02		1.2400000e+02		1.2200000e+02		6.8187614e+00		0.0000000e+00		0.0000000e+00		0.0000000e+00		0.0000000e+00		0.0000000e+00
1.2400000e+02		1.2800000e+02		1.2600000e+02		1.4143541e-01		0.0000000e+00		0.0000000e+00		0.0000000e+00		0.0000000e+00		0.0000000e+00
1.2800000e+02		1.3200000e+02		1.3000000e+02		6.9323558e-02		0.0000000e+00		0.0000000e+00		0.0000000e+00		0.0000000e+00		0.0000000e+00
1.3200000e+02		1.3600000e+02		1.3400000e+02		2.5864939e-01		0.0000000e+00		0.0000000e+00		0.0000000e+00		0.0000000e+00		0.0000000e+00
1.3600000e+02		1.4000000e+02		1.3800000e+02		1.2894848e-01		0.0000000e+00		0.0000000e+00		0.0000000e+00		0.0000000e+00		0.0000000e+00
1.4000000e+02		1.4400000e+02		1.4200000e+02		1.1199335e-01		0.0000000e+00		0.0000000e+00		0.0000000e+00		0.0000000e+00		0.0000000e+00
1.4400000e+02		1.4800000e+02		1.4600000e+02		5.2350506e-02		0.0000000e+00		0.0000000e+00		0.0000000e+00		0.0000000e+00		0.0000000e+00
1.4800000e+02		1.5200000e+02		1.5000000e+02		4.7255551e-02		0.0000000e+00		0.0000000e+00		0.0000000e+00		0.0000000e+00		0.0000000e+00
1.5200000e+02		1.5600000e+02		1.5400000e+02		4.5457739e-01		0.0000000e+00		0.0000000e+00		0.0000000e+00		0.0000000e+00		0.0000000e+00
1.5600000e+02		1.6000000e+02		1.5800000e+02		6.6701296e-02		0.0000000e+00		0.0000000e+00		0.0000000e+00		0.0000000e+00		0.0000000e+00
1.6000000e+02		1.6400000e+02		1.6200000e+02		6.4957894e-02		0.0000000e+00		0.0000000e+00		0.0000000e+00		0.0000000e+00		0.0000000e+00
1.6400000e+02		1.6800000e+02		1.6600000e+02		2.1754265e-01		0.0000000e+00		0.0000000e+00		0.0000000e+00		0.0000000e+00		0.0000000e+00
1.6800000e+02		1.7200000e+02		1.7000000e+02		3.5965030e-02		0.0000000e+00		0.0000000e+00		0.0000000e+00		0.0000000e+00		0.0000000e+00
1.7200000e+02		1.7600000e+02		1.7400000e+02		2.5592717e-02		0.0000000e+00		0.0000000e+00		0.0000000e+00		0.0000000e+00		0.0000000e+00
1.7600000e+02		1.8000000e+02		1.7800000e+02		2.1228762e-02		0.0000000e+00		0.0000000e+00		0.0000000e+00		0.0000000e+00		0.0000000e+00
1.8000000e+02		1.8400000e+02		1.8200000e+02		2.1667200e-01		0.0000000e+00		0.0000000e+00		0.0000000e+00		0.0000000e+00		0.0000000e+00
1.8400000e+02		1.8800000e+02		1.8600000e+02		1.2671460e-02		0.0000000e+00		0.0000000e+00		0.0000000e+00		0.0000000e+00		0.0000000e+00
1.8800000e+02		1.9200000e+02		1.9000000e+02		1.5788073e-02		-4.4072128e-280		0.0000000e+00		-7.6335165e-280		-7.6335165e-280		0.0000000e+00
1.9200000e+02		1.9600000e+02		1.9400000e+02		1.5400146e-02		-2.0107647e-87		nan		-3.4827466e-87		-3.4827466e-87		9.9043549e-108
1.9600000e+02		2.0000000e+02		1.9800000e+02		1.7169966e-02		2.0435899e-39		4.3861860e-32		3.1510740e-39		6.3581296e-40		2.5152610e-39
2.0000000e+02		2.0400000e+02		2.0200000e+02		1.6706866e-02		9.0638372e-05		2.9309694e-04		1.5698649e-04		1.5696204e-04		2.4446708e-08
2.0400000e+02		2.0800000e+02		2.0600000e+02		4.0366101e-02		4.7137083e-03		1.3861586e-02		8.1642925e-03		8.1637120e-03		5.8052964e-07
2.0800000e+02		2.1200000e+02		2.1000000e+02		2.5714649e-02		3.2312733e-03		9.2989696e-03		5.5965830e-03		5.5956349e-03		9.4813329e-07
2.1200000e+02		2.1600000e+02		2.1400000e+02		2.9476896e-02		3.9748452e-03		1.1209995e-02		6.8842438e-03		6.8817185e-03		2.5252923e-06
2.1600000e+02		2.2000000e+02		2.1800000e+02		5.3590876e-02		7.7341237e-03		2.1403695e-02		1.3394384e-02		1.3384597e-02		9.7861433e-06
2.2000000e+02		2.2400000e+02		2.2200000e+02		6.0998735e-02		9.3971362e-03		2.5549920e-02		1.6272918e-02		1.6250908e-02		2.2010004e-05
2.2400000e+02		2.2800000e+02		2.2600000e+02		8.9053912e-02		1.4607948e-02		3.9064266e-02		2.5292534e-02		2.5233143e-02		5.9391582e-05
2.2800000e+02		2.3200000e+02		2.3000000e+02		5.0561895e-02		8.8096958e-03		2.3194494e-02		1.5249765e-02		1.5191012e-02		5.8753703e-05
2.3200000e+02		2.3600000e+02		2.3400000e+02		3.4249942e-01		6.3236791e-02		1.6406773e-01		1.0942768e-01		1.0876956e-01		6.5811410e-04
2.3600000e+02		2.4000000e+02		2.3800000e+02		4.0438393e-01		7.8936381e-02		2.0198385e-01		1.3653236e-01		1.3530579e-01		1.2265719e-03
2.4000000e+02		2.4400000e+02		2.4200000e+02		2.1544862e-01		4.4363936e-02		1.1204076e-01		7.6687701e-02		7.5697915e-02		9.8978530e-04
2.4400000e+02		2.4800000e+02		2.4600000e+02		1.1127163e-01		2.4117446e-02		6.0154944e-02		4.1657378e-02		4.0911182e-02		7.4619605e-04
2.4800000e+02		2.5200000e+02		2.5000000e+02		1.9268175e-01		4.3866456e-02		1.0812467e-01		7.5697037e-02		7.3872106e-02		1.8249309e-03
2.5200000e+02		2.5600000e+02		2.5400000e+02		1.6242506e-01		3.8761564e-02		9.4466607e-02		6.6811171e-02		6.4701819e-02		2.1093523e-03
2.5600000e+02		2.6000000e+02		2.5800000e+02		2.4740824e-01		6.1766952e-02		1.4891162e-01		1.0632082e-01		1.0203077e-01		4.2900507e-03
2.6000000e+02		2.6400000e+02		2.6200000e+02		8.0294238e-01		2.0930697e-01		4.9939435e-01		3.5972656e-01		3.4157550e-01		1.8151055e-02
2.6400000e+02		2.6800000e+02		2.6600000e+02		2.3869250e-01		6.4846269e-02		1.5318254e-01		1.1125362e-01		1.0436925e-01		6.8843706e-03
2.6800000e+02		2.7200000e+02		2.7000000e+02		2.4424641e-01		6.9029851e-02		1.6150643e-01		1.1820162e-01		1.0938696e-01		8.8146682e-03
2.7200000e+02		2.7600000e+02		2.7400000e+02		5.2619952e-01		1.5444128e-01		3.5801324e-01		2.6389380e-01		2.4054689e-01		2.3346906e-02
2.7600000e+02		2.8000000e+02		2.7800000e+02		8.9394811e-01		2.7201775e-01		6.2497365e-01		4.6373553e-01		4.1574483e-01		4.7990705e-02
2.8000000e+02		2.8400000e+02		2.8200000e+02		9.2165347e-01		2.9028088e-01		6.6122776e-01		4.9366699e-01		4.3466294e-01		5.9004055e-02
2.8400000e+02		2.8800000e+02		2.8600000e+02		4.1810533e-01		1.3608874e-01		3.0743766e-01		2.3084650e-01		1.9934412e-01		3.1502380e-02
2.8800000e+02		2.9200000e+02		2.9000000e+02		6.1174048e-01		2.0546373e-01		4.6047064e-01		3.4759435e-01		2.9399578e-01		5.3598579e-02
2.9200000e+02		2.9600000e+02		2.9400000e+02		6.5334024e-01		2.2610506e-01		5.0284581e-01		3.8145511e-01		3.1561403e-01		6.5841080e-02
2.9600000e+02		3.0000000e+02		2.9800000e+02		6.1783210e-01		2.2000933e-01		4.8567535e-01		3.7011535e-01		2.9921405e-01		7.0901297e-02
3.0000000e+02		3.0400000e+02		3.0200000e+02		6.1063494e-01		2.2344668e-01		4.8975502e-01		3.7480707e-01		2.9573618e-01		7.9070887e-02
3.0400000e+02		3.0800000e+02		3.0600000e+02		7.7111193e-01		2.8958611e-01		6.3037586e-01		4.8431941e-01		3.7259127e-01		1.1172814e-01
3.0800000e+02		3.1200000e+02		3.1000000e+02		1.0368210e+00		3.9911921e-01		8.6308863e-01		6.6552808e-01		4.9871907e-01		1.6680900e-01
3.1200000e+02		3.1600000e+02		3.1400000e+02		1.2929978e+00		5.0959968e-01		1.0950253e+00		8.4722379e-01		6.1786420e-01		2.2935959e-01
3.1600000e+02		3.2000000e+02		3.1800000e+02		2.5227421e+00		1.0168422e+00		2.1716977e+00		1.6855017e+00		1.1952997e+00		4.9020197e-01
3.2000000e+02		3.2400000e+02		3.2200000e+02		2.6339324e+00		1.0846101e+00		2.3029048e+00		1.7925138e+00		1.2352083e+00		5.5730549e-01
3.2400000e+02		3.2800000e+02		3.2600000e+02		3.2005788e+00		1.3450743e+00		2.8399326e+00		2.2164581e+00		1.4831096e+00		7.3334846e-01
3.2800000e+02		3.3200000e+02		3.3000000e+02		5.8064912e+00		2.4880634e+00		5.2249536e+00		4.0880310e+00		2.6545887e+00		1.4334424e+00
3.3200000e+02		3.3600000e+02		3.3400000e+02		7.7919778e+00		3.4011548e+00		7.1056451e+00		5.5723351e+00		3.5095287e+00		2.0628065e+00
3.3600000e+02		3.4000000e+02		3.3800000e+02		8.8826477e+00		3.9461399e+00		8.2035053e+00		6.4470776e+00		3.9362861e+00		2.5107916e+00
3.4000000e+02		3.4400000e+02		3.4200000e+02		1.0848599e+01		4.9011025e+00		1.0140545e+01		7.9852362e+00		4.7242235e+00		3.2610127e+00
3.4400000e+02		3.4800000e+02		3.4600000e+02		1.3615156e+01		6.2501328e+00		1.2873149e+01		1.0155768e+01		5.8197285e+00		4.3360394e+00
3.4800000e+02		3.5200000e+02		3.5000000e+02		1.4592234e+01		6.8015549e+00		1.3948135e+01		1.1022722e+01		6.1161023e+00		4.9066201e+00
3.5200000e+02		3.5600000e+02		3.5400000e+02		1.9222833e+01		9.0910295e+00		1.8565841e+01		1.4695343e+01		7.8927630e+00		6.8025803e+00
3.5600000e+02		3.6000000e+02		3.5800000e+02		1.3782543e+01		6.6090517e+00		1.3443503e+01		1.0656673e+01		5.5388498e+00		5.1178232e+00
3.6000000e+02		3.6400000e+02		3.6200000e+02		1.6111960e+01		7.8287399e+00		1.5863973e+01		1.2592752e+01		6.3324063e+00		6.2603453e+00
3.6400000e+02		3.6800000e+02		3.6600000e+02		1.8298227e+01		9.0036741e+00		1.8178525e+01		1.4448598e+01		7.0281466e+00		7.4204514e+00
3.6800000e+02		3.7200000e+02		3.7000000e+02		1.8552502e+01		9.2390522e+00		1.8588918e+01		1.4792501e+01		6.9591239e+00		7.8333770e+00
3.7200000e+02		3.7600000e+02		3.7400000e+02		1.3428805e+01		6.7645056e+00		1.3564904e+01		1.0806612e+01		4.9163677e+00		5.8902448e+00
3.7600000e+02		3.8000000e+02		3.7800000e+02		2.3532102e+01		1.1984083e+01		2.3955362e+01		1.9104189e+01		8.4039064e+00		1.0700282e+01
3.8000000e+02		3.8400000e+02		3.8200000e+02		2.0325606e+01		1.0459624e+01		2.0844517e+01		1.6639519e+01		7.0771496e+00		9.5623697e+00
3.8400000e+02		3.8800000e+02		3.8600000e+02		2.9894238e+01		1.5537549e+01		3.0874076e+01		2.4668251e+01		1.0143747e+01		1.4524505e+01
3.8800000e+02		3.9200000e+02		3.9000000e+02		2.4861735e+01		1.3045273e+01		2.5849710e+01		2.0671402e+01		8.2178700e+00		1.2453532e+01
3.9200000e+02		3.9600000e+02		3.9400000e+02		2.5653833e+01		1.3583597e+01		2.6844860e+01		2.1484321e+01		8.2572579e+00		1.3227063e+01
3.9600000e+02		4.0000000e+02		3.9800000e+02		3.4640940e+01		1.8494023e+01		3.6458287e+01		2.9198077e+01		1.0847935e+01		1.8350142e+01
