	Wavelength (nm)		Flux (erg/s/cm2/nm)	
           100.0000000000             0.0646238797
           100.0100021362             0.0640227110
           100.0199966431             0.0635192962
           100.0299987793             0.0629667949
           100.0400009155             0.0624142878
           100.0500030518             0.0618148071
           100.0599975586             0.0613097043
           100.0699996948             0.0607571972
           100.0800018311             0.0601589854
           100.0899963379             0.0596526137
           100.0999984741             0.0591001124
           100.1100006104             0.0585476053
           100.1200027466             0.0579510757
           100.1299972534             0.0574430218
           100.1399993896             0.0568905147
           100.1500015259             0.0563380134
           100.1600036621             0.0557431660
           100.1699981689             0.0552334299
           100.1800003052             0.0546809228
           100.1900024414             0.0540873443
           100.1999969482             0.0535763393
           100.2099990845             0.0530238322
           100.2200012207             0.0524713309
           100.2300033569             0.0518794346
           100.2399978638             0.0513667474
           100.2500000000             0.0508142402
           100.2600021362             0.0502236129
           100.2699966431             0.0497096567
           100.2799987793             0.0491571554
           100.2900009155             0.0486046512
           100.3000030518             0.0480157032
           100.3099975586             0.0475000648
           100.3199996948             0.0469475606
           100.3300018311             0.0463598786
           100.3399963379             0.0458429771
           100.3499984741             0.0452904729
           100.3600006104             0.0447379687
           100.3700027466             0.0441519718
           100.3799972534             0.0436333823
           100.3899993896             0.0430808781
           100.4000015259             0.0425283768
           100.4100036621             0.0419440621
           100.4199981689             0.0414237904
           100.4300003052             0.0408712862
           100.4400024414             0.0402882404
           100.4499969482             0.0397666998
           100.4599990845             0.0392141985
           100.4700012207             0.0386616943
           100.4800033569             0.0380803307
           100.4899978638             0.0375571079
           100.5000000000             0.0370804657
           100.5100021362             0.0370300200
           100.5199966431             0.0371117407
           100.5299987793             0.0371652131
           100.5400009155             0.0372186856
           100.5500030518             0.0372437062
           100.5599975586             0.0373255898
           100.5699996948             0.0373790623
           100.5800018311             0.0374039606
           100.5899963379             0.0374859694
           100.5999984741             0.0375394389
           100.6100006104             0.0375929114
           100.6200027466             0.0376176497
           100.6299972534             0.0376998156
           100.6399993896             0.0377532881
           100.6500015259             0.0378067634
           100.6600036621             0.0378313387
           100.6699981689             0.0379136676
           100.6800003052             0.0379671401
           100.6900024414             0.0379915902
           100.6999969482             0.0380740472
           100.7099990845             0.0381275197
           100.7200012207             0.0381809921
           100.7300033569             0.0382052793
           100.7399978638             0.0382878934
           100.7500000000             0.0383413659
           100.7600021362             0.0383655337
           100.7699966431             0.0384482730
           100.7799987793             0.0385017454
           100.7900009155             0.0385552179
           100.8000030518             0.0385792198
           100.8099975586             0.0386621221
           100.8199996948             0.0387155946
           100.8300018311             0.0387394743
           100.8399963379             0.0388225017
           100.8499984741             0.0388759741
           100.8600006104             0.0389294466
           100.8700027466             0.0389531633
           100.8799972534             0.0390363479
           100.8899993896             0.0390898203
           100.9000015259             0.0391432957
           100.9100036621             0.0391668495
           100.9199981689             0.0392501999
           100.9300003052             0.0393036724
           100.9400024414             0.0393271039
           100.9499969482             0.0394105766
           100.9599990845             0.0394640520
           100.9700012207             0.0395175244
           100.9800033569             0.0395407900
           100.9899978638             0.0396244286
           101.0000000000             0.0396779011
           101.0100021362             0.0397010474
           101.0199966431             0.0397848024
           101.0299987793             0.0398382777
           101.0400009155             0.0398917502
           101.0500030518             0.0399147364
           101.0599975586             0.0399986544
           101.0699996948             0.0400521269
           101.0800018311             0.0400749879
           101.0899963379             0.0401590340
           101.0999984741             0.0402125064
           101.1100006104             0.0402659789
           101.1200027466             0.0402886741
           101.1299972534             0.0403728831
           101.1399993896             0.0404263585
           101.1500015259             0.0404798280
           101.1600036621             0.0405023631
           101.1699981689             0.0405867322
           101.1800003052             0.0406402047
           101.1900024414             0.0406626204
           101.1999969482             0.0407471089
           101.2099990845             0.0408005842
           101.2200012207             0.0408540567
           101.2300033569             0.0408763037
           101.2399978638             0.0409609609
           101.2500000000             0.0410144334
           101.2600021362             0.0410365610
           101.2699966431             0.0411213405
           101.2799987793             0.0411748100
           101.2900009155             0.0412282825
           101.3000030518             0.0412502472
           101.3099975586             0.0413351867
           101.3199996948             0.0413886592
           101.3300018311             0.0414105045
           101.3399963379             0.0414955663
           101.3499984741             0.0415490387
           101.3600006104             0.0416025112
           101.3700027466             0.0416241877
           101.3799972534             0.0417094154
           101.3899993896             0.0417628908
           101.4000015259             0.0418163632
           101.4100036621             0.0418378768
           101.4199981689             0.0419232645
           101.4300003052             0.0419767370
           101.4400024414             0.0419981312
           101.4499969482             0.0420836412
           101.4599990845             0.0421371165
           101.4700012207             0.0421905890
           101.4800033569             0.0422118203
           101.4899978638             0.0422974932
           101.5000000000             0.0436686852
           101.5100021362             0.0528897333
           101.5199966431             0.0635052333
           101.5299987793             0.0740843941
           101.5400009155             0.0846635550
           101.5500030518             0.0951660331
           101.5599975586             0.1058137976
           101.5699996948             0.1163929701
           101.5800018311             0.1268712454
           101.5899963379             0.1375432243
           101.5999984741             0.1481223851
           101.6100006104             0.1587015344
           101.6200027466             0.1691475511
           101.6299972534             0.1798518002
           101.6399993896             0.1904309611
           101.6500015259             0.2010100987
           101.6600036621             0.2114238450
           101.6699981689             0.2221603645
           101.6800003052             0.2327395137
           101.6900024414             0.2431290690
           101.6999969482             0.2538897796
           101.7099990845             0.2644689521
           101.7200012207             0.2750481013
           101.7300033569             0.2854053630
           101.7399978638             0.2961983671
           101.7500000000             0.3067775164
           101.7600021362             0.3171105636
           101.7699966431             0.3279277822
           101.7799987793             0.3385069314
           101.7900009155             0.3490861040
           101.8000030518             0.3593868576
           101.8099975586             0.3702363465
           101.8199996948             0.3808155190
           101.8300018311             0.3910920583
           101.8399963379             0.4019657616
           101.8499984741             0.4125449341
           101.8600006104             0.4231241066
           101.8700027466             0.4333683755
           101.8799972534             0.4442743491
           101.8899993896             0.4548534751
           101.9000015259             0.4654326476
           101.9100036621             0.4756446928
           101.9199981689             0.4865828902
           101.9300003052             0.4971620627
           101.9400024414             0.5073498935
           101.9499969482             0.5183123052
           101.9599990845             0.5288914312
           101.9700012207             0.5394706037
           101.9800033569             0.5496262107
           101.9899978638             0.5606208928
           102.0000000000             0.5712000653
           102.0100021362             0.5813314114
           102.0199966431             0.5923502613
           102.0299987793             0.6029294338
           102.0400009155             0.6135086063
           102.0500030518             0.6236077286
           102.0599975586             0.6346588954
           102.0699996948             0.6452380214
           102.0800018311             0.6558171939
           102.0899963379             0.6658839993
           102.0999984741             0.6769674364
           102.1100006104             0.6875466090
           102.1200027466             0.6975892466
           102.1299972534             0.7086968515
           102.1399993896             0.7192760240
           102.1500015259             0.7292944472
           102.1600036621             0.7404262666
           102.1699981689             0.7510053925
           102.1800003052             0.7615845650
           102.1900024414             0.7715707645
           102.1999969482             0.7827349007
           102.2099990845             0.7933139801
           102.2200012207             0.8038931526
           102.2300033569             0.8138470352
           102.2399978638             0.8250433952
           102.2500000000             0.8356225677
           102.2600021362             0.8455522358
           102.2699966431             0.8567728102
           102.2799987793             0.8673519827
           102.2900009155             0.8779311553
           102.3000030518             0.8878285065
           102.3099975586             0.8990813978
           102.3199996948             0.9096605703
           102.3300018311             0.9202397428
           102.3399963379             0.9301047772
           102.3499984741             0.9413899854
           102.3600006104             0.9519691579
           102.3700027466             0.9618100710
           102.3799972534             0.9731194004
           102.3899993896             0.9836985730
           102.4000015259             0.9935152717
           102.4100036621             1.0048487224
           102.4199981689             1.0154279880
           102.4300003052             1.0260070674
           102.4400024414             1.0357915424
           102.4499969482             1.0471574031
           102.4599990845             1.0577364825
           102.4700012207             1.0683157481
           102.4800033569             1.0780678131
           102.4899978638             1.0894659907
           102.5000000000             1.0982723907
           102.5100021362             1.0956235230
           102.5199966431             1.0928800330
           102.5299987793             1.0892988183
           102.5400009155             1.0857176967
           102.5500030518             1.0813123547
           102.5599975586             1.0785579681
           102.5699996948             1.0749767534
           102.5800018311             1.0713955387
           102.5899963379             1.0670012794
           102.5999984741             1.0642359033
           102.6100006104             1.0606546886
           102.6200027466             1.0562685318
           102.6299972534             1.0534949601
           102.6399993896             1.0499139316
           102.6500015259             1.0455358773
           102.6600036621             1.0427542031
           102.6699981689             1.0391729884
           102.6800003052             1.0355917737
           102.6900024414             1.0312248021
           102.6999969482             1.0284320451
           102.7099990845             1.0248508304
           102.7200012207             1.0212696157
           102.7300033569             1.0169136338
           102.7399978638             1.0141100734
           102.7500000000             1.0105288588
           102.7600021362             1.0061808862
           102.7699966431             1.0033691302
           102.7799987793             0.9997879155
           102.7900009155             0.9962067008
           102.8000030518             0.9918698110
           102.8099975586             0.9890470654
           102.8199996948             0.9854658507
           102.8300018311             0.9818846360
           102.8399963379             0.9775586426
           102.8499984741             0.9747250937
           102.8600006104             0.9711437859
           102.8700027466             0.9668259881
           102.8799972534             0.9639841504
           102.8899993896             0.9604029357
           102.9000015259             0.9560933337
           102.9100036621             0.9532433003
           102.9199981689             0.9496620856
           102.9300003052             0.9460808709
           102.9400024414             0.9417821653
           102.9499969482             0.9389212355
           102.9599990845             0.9353400208
           102.9700012207             0.9317588061
           102.9800033569             0.9274709970
           102.9899978638             0.9245991707
           103.0000000000             0.9210179560
           103.0100021362             0.9167383425
           103.0199966431             0.9138582274
           103.0299987793             0.9102770127
           103.0400009155             0.9066958912
           103.0500030518             0.9024271742
           103.0599975586             0.8995361626
           103.0699996948             0.8959549479
           103.0800018311             0.8923738264
           103.0899963379             0.8881160058
           103.0999984741             0.8852141909
           103.1100006104             0.8816329762
           103.1200027466             0.8773833513
           103.1299972534             0.8744733408
           103.1399993896             0.8708921261
           103.1500015259             0.8666506968
           103.1600036621             0.8637323976
           103.1699981689             0.8601511829
           103.1800003052             0.8565700613
           103.1900024414             0.8523395285
           103.1999969482             0.8494103327
           103.2099990845             0.8458291180
           103.2200012207             0.8422479965
           103.2300033569             0.8380283602
           103.2399978638             0.8350882679
           103.2500000000             0.8315070532
           103.2600021362             0.8272957057
           103.2699966431             0.8243474178
           103.2799987793             0.8207662031
           103.2900009155             0.8171849884
           103.3000030518             0.8129845373
           103.3099975586             0.8100252599
           103.3199996948             0.8064441383
           103.3300018311             0.8028629236
           103.3399963379             0.7986733690
           103.3499984741             0.7957032882
           103.3600006104             0.7921220735
           103.3700027466             0.7879408076
           103.3799972534             0.7849624380
           103.3899993896             0.7813812234
           103.4000015259             0.7772080600
           103.4100036621             0.7742215414
           103.4199981689             0.7706403267
           103.4300003052             0.7670591120
           103.4400024414             0.7628968917
           103.4499969482             0.7598994300
           103.4599990845             0.7563182618
           103.4700012207             0.7527370472
           103.4800033569             0.7485857699
           103.4899978638             0.7455773652
           103.5000000000             0.7415864617
           103.5100021362             0.7345829625
           103.5199966431             0.7282925770
           103.5299987793             0.7214386947
           103.5400009155             0.7145849057
           103.5500030518             0.7071938831
           103.5599975586             0.7008825429
           103.5699996948             0.6940287072
           103.5800018311             0.6871749181
           103.5899963379             0.6798047572
           103.5999984741             0.6734725554
           103.6100006104             0.6666187663
           103.6200027466             0.6592642516
           103.6299972534             0.6529163569
           103.6399993896             0.6460625678
           103.6500015259             0.6387237459
           103.6600036621             0.6323601585
           103.6699981689             0.6255063228
           103.6800003052             0.6186524872
           103.6900024414             0.6113346666
           103.6999969482             0.6049501244
           103.7099990845             0.5980963353
           103.7200012207             0.5912425462
           103.7300033569             0.5839455407
           103.7399978638             0.5775401369
           103.7500000000             0.5706863478
           103.7600021362             0.5634050351
           103.7699966431             0.5569839384
           103.7799987793             0.5501301493
           103.7900009155             0.5432763137
           103.8000030518             0.5360159557
           103.8099975586             0.5295739044
           103.8199996948             0.5227201153
           103.8300018311             0.5158663262
           103.8399963379             0.5086268298
           103.8499984741             0.5021639168
           103.8600006104             0.4953100812
           103.8700027466             0.4880863242
           103.8799972534             0.4816077184
           103.8899993896             0.4747538827
           103.9000015259             0.4675457720
